Lattice	 Free energy
4.800	-74.06626805
4.810	-74.13338147
4.820	-74.19480423
4.830	-74.25067886
4.840	-74.30092393
4.850	-74.34606652
4.860	-74.38558558
4.870	-74.42001359
4.880	-74.44907839
4.890	-74.47321861
4.900	-74.49233723
4.910	-74.50662218
4.920	-74.51599636
4.930	-74.52066468
4.934	-74.52125928
4.940	-74.52070432
4.950	-74.51606232
4.960	-74.50706609
4.970	-74.49350824
4.980	-74.47566587
4.990	-74.45347603
5.000	-74.42715984
