Lattice	 Free energy
2.400	-74.06626805
2.405	-74.13338147
2.410	-74.19480423
2.415	-74.25067886
2.420	-74.30092393
2.425	-74.34606652
2.430	-74.38558558
2.435	-74.42001359
2.440	-74.44907839
2.445	-74.47321861
2.450	-74.49233723
2.455	-74.50662218
2.460	-74.51599636
2.465	-74.52066468
2.470	-74.52070432
2.475	-74.51606232
2.480	-74.50706609
2.485	-74.49350824
2.490	-74.47566587
2.495	-74.45347603
2.500	-74.42715984
