Lattice	 Free energy
4.900	-19.53462156
4.910	-19.48183282
4.920	-19.42941241
4.930	-19.37736107
4.940	-19.32568207
4.950	-19.27437026
4.960	-19.22342855
4.970	-19.17285353
4.980	-19.1226464
4.990	-19.07280477
5.000	-19.02332593
5.010	-18.97421362
5.020	-18.92546302
5.030	-18.87707124
5.040	-18.82904092
5.050	-18.78136471
5.060	-18.73404825
5.070	-18.68708238
5.080	-18.64046833
5.090	-18.59420432
5.100	-18.5482902
