Lattice	 Free energy
2.400	-4.18219634
2.405	-4.15485283
2.410	-4.1276722
2.415	-4.10070351
2.420	-4.07385778
2.425	-4.04726686
2.430	-4.02076827
2.435	-3.99447205
2.440	-3.96828897
2.445	-3.94231923
2.450	-3.91648761
2.455	-3.89083366
2.460	-3.86532968
2.465	-3.83996552
2.470	-3.8147516
2.475	-3.78971485
2.480	-3.76481959
2.485	-3.74006822
2.490	-3.71549118
2.495	-3.69105269
2.500	-3.6667414
